%
% Table 40-10 - Normalized Time Domain Voltage Template 1
%
-5.00 0.025 -0.026
-4.75 0.025 -0.026
-4.50 0.025 -0.026
-4.25 0.025 -0.026
-4.00 0.025 -0.026
-3.75 0.025 -0.026
-3.50 0.025 -0.026
-3.25 0.031 -0.026
-3.00 0.050 -0.026
-2.75 0.077 -0.026
-2.50 0.110 -0.026
-2.25 0.148 -0.026
-2.00 0.190 -0.027
-1.75 0.235 -0.027
-1.50 0.281 -0.028
-1.25 0.329 -0.028
-1.00 0.378 -0.028
-0.75 0.427 -0.006
-0.50 0.496 0.152
-0.25 0.584 0.304
0.00 0.669 0.398
0.25 0.739 0.448
0.50 0.796 0.499
0.75 0.844 0.550
1.00 0.882 0.601
1.25 0.914 0.651
1.50 0.940 0.701
1.75 0.960 0.751
2.00 0.977 0.797
2.25 0.992 0.822
2.50 1.010 0.845
2.75 1.020 0.864
3.00 1.024 0.881
3.25 1.025 0.896
3.50 1.025 0.909
3.75 1.025 0.921
4.00 1.025 0.931
4.25 1.025 0.939
4.50 1.025 0.946
4.75 1.025 0.953
5.00 1.025 0.951
5.25 1.025 0.931
5.50 1.025 0.905
5.75 1.025 0.877
6.00 1.025 0.846
6.25 1.025 0.813
6.50 1.025 0.779
6.75 1.025 0.743
7.00 1.014 0.707
7.25 0.996 0.671
7.50 0.888 0.634
7.75 0.784 0.570
8.00 0.714 0.510
8.25 0.669 0.460
8.50 0.629 0.418
8.75 0.593 0.383
9.00 0.561 0.354
9.25 0.533 0.330
9.50 0.507 0.309
9.75 0.483 0.292
10.00 0.462 0.268
10.25 0.443 0.239
10.50 0.427 0.223
10.75 0.411 0.213
11.00 0.398 0.208
11.25 0.385 0.204
11.50 0.374 0.201
11.75 0.364 0.199
12.00 0.355 0.198
12.25 0.346 0.197
12.50 0.339 0.196
12.75 0.332 0.195
13.00 0.326 0.192
13.25 0.320 0.181
13.50 0.315 0.169
13.75 0.311 0.155
14.00 0.307 0.140
14.25 0.303 0.124
14.50 0.300 0.108
14.75 0.292 0.091
15.00 0.278 0.074
15.25 0.254 0.056
15.50 0.200 0.039
15.75 0.157 0.006
16.00 0.128 -0.023
16.25 0.104 -0.048
16.50 0.083 -0.068
16.75 0.064 -0.084
17.00 0.047 -0.098
17.25 0.032 -0.110
17.50 0.019 -0.119
17.75 0.007 -0.127
18.00 -0.004 -0.133
18.25 -0.014 -0.145
18.50 -0.022 -0.152
18.75 -0.030 -0.156
19.00 -0.037 -0.158
19.25 -0.043 -0.159
19.50 -0.048 -0.159
19.75 -0.053 -0.159
20.00 -0.057 -0.159
20.25 -0.061 -0.159
20.50 -0.064 -0.159
20.75 -0.067 -0.159
21.00 -0.070 -0.159
21.25 -0.072 -0.159
21.50 -0.074 -0.158
21.75 -0.076 -0.158
22.00 -0.077 -0.158
22.25 -0.078 -0.158
22.50 -0.079 -0.158
22.75 -0.079 -0.157
23.00 -0.079 -0.157
23.25 -0.080 -0.157
23.50 -0.080 -0.157
23.75 -0.080 -0.156
24.00 -0.080 -0.156
24.25 -0.080 -0.156
24.50 -0.080 -0.156
24.75 -0.080 -0.156
25.00 -0.080 -0.156
25.25 -0.080 -0.156
25.50 -0.080 -0.156
25.75 -0.079 -0.156
26.00 -0.079 -0.156
26.25 -0.079 -0.156
26.50 -0.079 -0.155
26.75 -0.079 -0.155
27.00 -0.078 -0.155
27.25 -0.078 -0.155
27.50 -0.078 -0.154
27.75 -0.078 -0.154
28.00 -0.077 -0.154
28.25 -0.077 -0.153
28.50 -0.077 -0.153
28.75 -0.076 -0.153
29.00 -0.076 -0.152
29.25 -0.076 -0.152
29.50 -0.076 -0.152
29.75 -0.075 -0.151
30.00 -0.075 -0.151